WE1 Volts(mV)    WE1 Idir (uA)		WE1 Volts(mV)    WE1 Idir (uA)		WE1 Volts(mV)    WE1 Idir (uA)		WE1 Volts(mV)    WE1 Idir (uA)	
Ru Adsorbido con HQ 5mM.teq4_2col	Ru Adsorbido con HQ 5mM.teq4_2col	Ru 0.63mM Ciclado - 20 Ciclos 1.teq4_2col	Ru 0.63mM Ciclado - 20 Ciclos 1.teq4_2col	Ru 0.63mM Ciclado - 20 Ciclos 2.teq4_2col	Ru 0.63mM Ciclado - 20 Ciclos 2.teq4_2col	Ru Adsorbido con HQ 5mM 20 ciclos.teq4_2col	Ru Adsorbido con HQ 5mM 20 ciclos.teq4_2col
-600.2798	-5.0349	-600.3207	-4.2032	-600.3432	-2.429352	-600.2431	-6.514217
-600.0431	-5.020016	-600.0999	-4.191395	-600.0923	-2.41163	-600.0211	-6.498934
-599.5602	-4.998504	-599.6078	-4.17555	-599.5952	-2.387248	-599.5425	-6.47798
-598.8252	-4.96971	-598.8711	-4.158288	-598.8494	-2.356828	-598.8287	-6.450804
-597.8214	-4.936157	-597.8825	-4.137321	-597.8308	-2.317964	-597.8252	-6.417769
-596.8317	-4.91446	-596.8708	-4.128784	-596.838	-2.295158	-596.8099	-6.396983
-595.8235	-4.893211	-595.8812	-4.118079	-595.8498	-2.271885	-595.8057	-6.371785
-594.8226	-4.874471	-594.8745	-4.107599	-594.8567	-2.251668	-594.8022	-6.351432
-593.8331	-4.856196	-593.8597	-4.098177	-593.8767	-2.232933	-593.8062	-6.327744
-592.8107	-4.837218	-592.8352	-4.086271	-592.8596	-2.210521	-592.8162	-6.303138
-591.8102	-4.820009	-591.8226	-4.078497	-591.8568	-2.192984	-591.8188	-6.284284
-590.8401	-4.803682	-590.8186	-4.069659	-590.8433	-2.171778	-590.8074	-6.260811
-589.8424	-4.785906	-589.8309	-4.061985	-589.8474	-2.153611	-589.8165	-6.239605
-588.8828	-4.767693	-588.8557	-4.055948	-588.8729	-2.136323	-588.8285	-6.217501
-587.882	-4.750401	-587.8629	-4.049801	-587.8536	-2.116457	-587.8423	-6.194376
-586.8588	-4.731558	-586.8557	-4.042972	-586.8878	-2.09884	-586.8427	-6.173483
-585.8669	-4.715759	-585.8363	-4.036252	-585.8992	-2.081183	-585.857	-6.154702
-584.8618	-4.698444	-584.8302	-4.028087	-584.8987	-2.063122	-584.8516	-6.135539
-583.8728	-4.679869	-583.8248	-4.019334	-583.9234	-2.045522	-583.8325	-6.11817
-582.8706	-4.665591	-582.8511	-4.012227	-582.9141	-2.028164	-582.8334	-6.101673
-581.8716	-4.646008	-581.8724	-4.005628	-581.8882	-2.009167	-581.8511	-6.085518
-580.8792	-4.629581	-580.8777	-3.998061	-580.8882	-1.990503	-580.8437	-6.069693
-579.8847	-4.611551	-579.8821	-3.990335	-579.879	-1.971465	-579.8585	-6.052302
-578.8967	-4.591648	-578.8683	-3.983217	-578.8792	-1.952132	-578.8448	-6.032077
-577.9078	-4.575893	-577.8561	-3.975309	-577.8943	-1.934598	-577.8245	-6.013343
-576.8999	-4.558227	-576.8501	-3.969373	-576.8881	-1.915987	-576.8229	-5.996185
-575.9063	-4.543449	-575.8554	-3.965265	-575.9036	-1.897803	-575.8165	-5.978398
-574.9013	-4.525033	-574.8611	-3.959838	-574.8898	-1.879548	-574.843	-5.962428
-573.8661	-4.506384	-573.8648	-3.953075	-573.8896	-1.858666	-573.8325	-5.943911
-572.8721	-4.491725	-572.8712	-3.946458	-572.8789	-1.841495	-572.848	-5.925812
-571.8568	-4.473601	-571.8755	-3.940005	-571.8666	-1.822185	-571.8301	-5.907387
-570.8583	-4.458564	-570.8694	-3.93306	-570.8754	-1.802247	-570.8063	-5.886914
-569.8773	-4.443006	-569.8916	-3.927074	-569.8692	-1.783377	-569.8417	-5.867492
-568.8574	-4.424293	-568.8852	-3.920252	-568.8796	-1.76285	-568.8279	-5.843861
-567.842	-4.409592	-567.8779	-3.910688	-567.8868	-1.742417	-567.8416	-5.821415
-566.8345	-4.394126	-566.868	-3.903189	-566.868	-1.722796	-566.8375	-5.802052
-565.8259	-4.379085	-565.8253	-3.896926	-565.8702	-1.703063	-565.7988	-5.786937
-564.8157	-4.363598	-564.8135	-3.891614	-564.8738	-1.681985	-564.809	-5.778334
-563.8579	-4.347532	-563.8092	-3.888498	-563.8678	-1.663109	-563.8077	-5.768676
-562.8752	-4.332529	-562.8312	-3.883526	-562.8693	-1.643229	-562.8325	-5.758816
-561.8798	-4.316692	-561.859	-3.879003	-561.8719	-1.621994	-561.8452	-5.745015
-560.879	-4.302719	-560.8682	-3.872478	-560.8848	-1.602125	-560.8276	-5.72731
-559.8663	-4.287827	-559.884	-3.866527	-559.8914	-1.581241	-559.8485	-5.710379
-558.8708	-4.272475	-558.8929	-3.860842	-558.9022	-1.56094	-558.8412	-5.693547
-557.8787	-4.259203	-557.9077	-3.85292	-557.8904	-1.539454	-557.837	-5.675875
-556.9117	-4.244547	-556.9088	-3.845698	-556.8913	-1.518872	-556.8468	-5.660439
-555.9047	-4.228197	-555.905	-3.837195	-555.8922	-1.496922	-555.8527	-5.645359
-554.8736	-4.211573	-554.8856	-3.829736	-554.8978	-1.473549	-554.8681	-5.627303
-553.8887	-4.195203	-553.8535	-3.82273	-553.9114	-1.452102	-553.8685	-5.61095
-552.8717	-4.180425	-552.8459	-3.817316	-552.91	-1.428761	-552.8556	-5.595458
-551.9019	-4.166796	-551.8409	-3.81203	-551.9058	-1.405561	-551.8575	-5.580904
-550.9096	-4.15199	-550.8655	-3.807037	-550.9026	-1.382699	-550.8306	-5.568838
-549.9067	-4.136416	-549.9004	-3.802383	-549.8969	-1.359644	-549.8567	-5.554294
-548.9141	-4.120044	-548.9091	-3.796917	-548.8914	-1.336208	-548.8738	-5.539121
-547.8837	-4.104387	-547.915	-3.791223	-547.8916	-1.312576	-547.8534	-5.52455
-546.889	-4.091425	-546.8867	-3.783772	-546.9081	-1.290312	-546.8678	-5.508975
-545.8875	-4.076735	-545.8617	-3.776689	-545.9137	-1.267715	-545.8506	-5.493989
-544.8845	-4.059578	-544.8671	-3.768809	-544.9236	-1.243784	-544.8451	-5.478218
-543.8993	-4.045135	-543.8553	-3.761754	-543.9196	-1.221416	-543.8557	-5.461666
-542.8907	-4.030164	-542.8529	-3.755933	-542.907	-1.197258	-542.8616	-5.447979
-541.873	-4.013256	-541.8536	-3.747945	-541.8931	-1.171985	-541.8572	-5.432723
-540.8725	-4.000617	-540.8531	-3.742131	-540.8737	-1.149404	-540.8619	-5.41788
-539.8522	-3.982081	-539.8672	-3.736055	-539.8682	-1.12519	-539.8572	-5.40178
-538.8557	-3.963391	-538.8662	-3.730877	-538.8741	-1.101631	-538.8476	-5.382127
-537.8749	-3.949173	-537.8779	-3.727553	-537.9084	-1.079366	-537.8618	-5.36917
-536.8765	-3.933257	-536.8889	-3.721856	-536.9343	-1.056619	-536.8659	-5.354796
-535.8931	-3.920158	-535.8872	-3.716972	-535.9462	-1.032503	-535.8591	-5.340441
-534.901	-3.905441	-534.9097	-3.710913	-534.9615	-1.008687	-534.8621	-5.326359
-533.8738	-3.891137	-533.9034	-3.704972	-533.9455	-0.985806	-533.8704	-5.310087
-532.8644	-3.875627	-532.888	-3.700174	-532.9256	-0.961551	-532.8798	-5.294959
-531.8651	-3.862042	-531.8815	-3.694564	-531.9245	-0.938455	-531.9043	-5.280025
-530.8776	-3.847832	-530.8726	-3.688167	-530.9164	-0.914991	-530.9187	-5.266965
-529.8945	-3.829358	-529.8793	-3.679988	-529.9213	-0.88999	-529.9119	-5.250141
-528.8878	-3.812847	-528.8679	-3.671169	-528.9245	-0.862353	-528.8951	-5.233862
-527.8901	-3.794461	-527.867	-3.663198	-527.9163	-0.837863	-527.8756	-5.218859
-526.8717	-3.778538	-526.8499	-3.658332	-526.9133	-0.814079	-526.8583	-5.203114
-525.8812	-3.763463	-525.8444	-3.654855	-525.9224	-0.789337	-525.8461	-5.185732
-524.8983	-3.750322	-524.8552	-3.651994	-524.9399	-0.7694	-524.8558	-5.168756
-523.8817	-3.735466	-523.8304	-3.648336	-523.9509	-0.745781	-523.8677	-5.154181
-522.8956	-3.719141	-522.8336	-3.64199	-522.9365	-0.720327	-522.8743	-5.136818
-521.8958	-3.704342	-521.8443	-3.637528	-521.9279	-0.697891	-521.8822	-5.123862
-520.903	-3.686278	-520.8478	-3.631828	-520.8966	-0.672955	-520.8859	-5.107959
-519.8969	-3.669421	-519.8802	-3.62609	-519.8901	-0.649187	-519.8618	-5.090949
-518.8943	-3.653425	-518.8871	-3.620579	-518.8865	-0.626717	-518.8543	-5.075864
-517.8734	-3.637134	-517.864	-3.611693	-517.8915	-0.602345	-517.8453	-5.059493
-516.8503	-3.620899	-516.8351	-3.60557	-516.9121	-0.57867	-516.8218	-5.044039
-515.8463	-3.605424	-515.7968	-3.599099	-515.9102	-0.553131	-515.8234	-5.025773
-514.8414	-3.58943	-514.7805	-3.594477	-514.91	-0.530214	-514.8401	-5.010983
-513.8523	-3.573001	-513.795	-3.591426	-513.8926	-0.508114	-513.8428	-4.994456
-512.8438	-3.55711	-512.8083	-3.587238	-512.8721	-0.486493	-512.8524	-4.9789
-511.8665	-3.540387	-511.8335	-3.583558	-511.8839	-0.468168	-511.8541	-4.963552
-510.8803	-3.522874	-510.8584	-3.577852	-510.8879	-0.447377	-510.8519	-4.94586
-509.8784	-3.50729	-509.8557	-3.571889	-509.8716	-0.425829	-509.8387	-4.927497
-508.9051	-3.491765	-508.8572	-3.565826	-508.8881	-0.406472	-508.856	-4.912053
-507.9145	-3.475319	-507.8538	-3.558922	-507.871	-0.386887	-507.8746	-4.897726
-506.8941	-3.459117	-506.8487	-3.551975	-506.8667	-0.367051	-506.8711	-4.882217
-505.8943	-3.442531	-505.8458	-3.545748	-505.8945	-0.349777	-505.8929	-4.86821
-504.8938	-3.425291	-504.8616	-3.538651	-504.8927	-0.329861	-504.8906	-4.850841
-503.8789	-3.408875	-503.8604	-3.53266	-503.9052	-0.308241	-503.8799	-4.83553
-502.8752	-3.39254	-502.8608	-3.527705	-502.9223	-0.290269	-502.8855	-4.818404
-501.8877	-3.374929	-501.8529	-3.522023	-501.9139	-0.269705	-501.869	-4.803677
-500.8829	-3.355314	-500.8694	-3.517699	-500.9063	-0.251842	-500.8616	-4.788716
-499.8922	-3.33917	-499.8826	-3.513467	-499.8986	-0.235535	-499.8665	-4.769031
-498.9169	-3.322343	-498.8759	-3.508586	-498.9083	-0.217474	-498.8734	-4.752176
-497.9146	-3.305104	-497.8929	-3.503773	-497.932	-0.201161	-497.8873	-4.735291
-496.9063	-3.286738	-496.8655	-3.497116	-496.921	-0.184265	-496.8946	-4.718251
-495.8816	-3.267446	-495.8593	-3.49067	-495.9256	-0.168286	-495.8868	-4.704935
-494.8655	-3.24988	-494.8687	-3.484122	-494.9149	-0.148547	-494.875	-4.688337
-493.8631	-3.231481	-493.8573	-3.476971	-493.891	-0.131202	-493.8683	-4.6691
-492.8715	-3.217375	-492.8683	-3.472076	-492.908	-0.114699	-492.8535	-4.652196
-491.8935	-3.199876	-491.8773	-3.464416	-491.9021	-0.098876	-491.8557	-4.632927
-490.8911	-3.18394	-490.8854	-3.457649	-490.8909	-0.084595	-490.844	-4.618754
-489.9123	-3.169397	-489.8734	-3.453113	-489.8971	-0.067891	-489.8441	-4.604366
-488.922	-3.152879	-488.8795	-3.448409	-488.9018	-0.053421	-488.8624	-4.589778
-487.915	-3.137931	-487.8658	-3.445274	-487.9178	-0.038902	-487.882	-4.573772
-486.9286	-3.120969	-486.8557	-3.442506	-486.9313	-0.027244	-486.8968	-4.555272
-485.9193	-3.10485	-485.8736	-3.437917	-485.9221	-0.015871	-485.8914	-4.538459
-484.9145	-3.089422	-484.8612	-3.431372	-484.9158	-5.86E-4	-484.8937	-4.521372
-483.9193	-3.074116	-483.8766	-3.42552	-483.9133	0.013959	-483.8656	-4.504088
-482.9271	-3.057189	-482.8813	-3.419541	-482.9037	0.028493	-482.873	-4.488522
-481.9304	-3.038908	-481.9076	-3.414255	-481.9246	0.043799	-481.8924	-4.471296
-480.9233	-3.022537	-480.9218	-3.40913	-480.9363	0.056083	-480.8866	-4.45113
-479.9339	-3.005195	-479.907	-3.402784	-479.9488	0.068973	-479.9137	-4.43519
-478.9284	-2.988981	-478.8972	-3.394953	-478.9648	0.080909	-478.9041	-4.416819
-477.8952	-2.971512	-477.8669	-3.387146	-477.9497	0.094251	-477.8738	-4.400048
-476.8813	-2.95242	-476.86	-3.382706	-476.9352	0.105544	-476.8636	-4.386136
-475.8654	-2.935403	-475.8674	-3.379145	-475.9295	0.117582	-475.8535	-4.365678
-474.8629	-2.918636	-474.8721	-3.376346	-474.9064	0.130709	-474.8734	-4.348038
-473.8944	-2.905789	-473.8934	-3.373363	-473.9173	0.140068	-473.8976	-4.330831
-472.9083	-2.889942	-472.9171	-3.368475	-472.9261	0.152218	-472.9062	-4.312324
-471.9061	-2.871608	-471.9082	-3.363928	-471.9054	0.165153	-471.9	-4.298021
-470.8907	-2.856694	-470.9284	-3.358903	-470.9045	0.177336	-470.8921	-4.282538
-469.8637	-2.837093	-469.9211	-3.354193	-469.8925	0.189263	-469.8885	-4.266268
-468.8781	-2.822776	-468.9085	-3.347849	-468.8921	0.201257	-468.8941	-4.248547
-467.8896	-2.807306	-467.9252	-3.340299	-467.9145	0.212414	-467.8956	-4.231619
-466.9034	-2.789487	-466.8913	-3.332941	-466.9254	0.222973	-466.8685	-4.21435
-465.8976	-2.775829	-465.8792	-3.325991	-465.9179	0.236701	-465.8633	-4.194772
-464.8741	-2.757788	-464.8677	-3.320043	-464.8835	0.251636	-464.8373	-4.17888
-463.8652	-2.744482	-463.8495	-3.31653	-463.8525	0.263004	-463.8383	-4.163838
-462.8664	-2.728464	-462.8708	-3.314433	-462.8443	0.275498	-462.8681	-4.1485
-461.8624	-2.709847	-461.8774	-3.310456	-461.8409	0.288461	-461.8703	-4.134323
-460.8775	-2.6968	-460.8786	-3.306574	-460.8954	0.297098	-460.8833	-4.118877
-459.8723	-2.681119	-459.8926	-3.30081	-459.9223	0.310893	-459.8837	-4.101737
-458.8567	-2.66756	-458.8808	-3.293422	-458.9033	0.325198	-458.8631	-4.085612
-457.8815	-2.655498	-457.8929	-3.287221	-457.9296	0.336153	-457.85	-4.070162
-456.8771	-2.64154	-456.903	-3.281241	-456.9373	0.350076	-456.8533	-4.052687
-455.8861	-2.628337	-455.9105	-3.277141	-455.9394	0.363144	-455.858	-4.040224
-454.9271	-2.616238	-454.9268	-3.272563	-454.9688	0.376584	-454.8752	-4.024832
-453.9296	-2.602548	-453.9305	-3.268754	-453.9568	0.391597	-453.8853	-4.010365
-452.9023	-2.587402	-452.9269	-3.265523	-452.9193	0.408079	-452.8983	-3.997402
-451.8991	-2.573597	-451.9235	-3.258854	-451.9097	0.424932	-451.8826	-3.978062
-450.8672	-2.559359	-450.9322	-3.253383	-450.9149	0.440513	-450.8649	-3.96423
-449.864	-2.545963	-449.9098	-3.248078	-449.9287	0.455153	-449.8632	-3.949498
-448.8914	-2.532457	-448.9203	-3.240147	-448.9496	0.471794	-448.8592	-3.93622
-447.9041	-2.516109	-447.9173	-3.234629	-447.9514	0.486503	-447.889	-3.924749
-446.9067	-2.501661	-446.9078	-3.231112	-446.9494	0.503093	-446.8876	-3.912205
-445.9072	-2.485616	-445.9125	-3.223195	-445.9182	0.524471	-445.8807	-3.897696
-444.9109	-2.471979	-444.8796	-3.218329	-444.8919	0.540023	-444.8603	-3.886565
-443.9012	-2.457608	-443.8794	-3.212298	-443.8972	0.55894	-443.8531	-3.875199
-442.8907	-2.441453	-442.8575	-3.205769	-442.8963	0.57841	-442.8579	-3.860356
-441.8958	-2.429457	-441.8545	-3.201801	-441.9152	0.595551	-441.8849	-3.849563
-440.8866	-2.413536	-440.8695	-3.194827	-440.925	0.618139	-440.9042	-3.835845
-439.8772	-2.399302	-439.863	-3.18927	-439.8873	0.640702	-439.8891	-3.821492
-438.8831	-2.381261	-438.8675	-3.183354	-438.8772	0.662099	-438.895	-3.809986
-437.8779	-2.366085	-437.8651	-3.178159	-437.8842	0.684678	-437.8764	-3.796461
-436.8801	-2.351311	-436.8604	-3.175557	-436.8923	0.705553	-436.8749	-3.783501
-435.8813	-2.336854	-435.8624	-3.17135	-435.9139	0.727787	-435.8707	-3.775272
-434.8922	-2.326275	-434.8585	-3.165886	-434.9291	0.751618	-434.8755	-3.765421
-433.8937	-2.307729	-433.8687	-3.160057	-433.9286	0.777109	-433.8805	-3.755636
-432.9026	-2.291767	-432.8866	-3.153511	-432.9129	0.805755	-432.8645	-3.741843
-431.906	-2.277375	-431.89	-3.15024	-431.9216	0.831353	-431.8669	-3.729614
-430.9171	-2.26148	-430.9083	-3.145412	-430.9197	0.858902	-430.8684	-3.719716
-429.9211	-2.245515	-429.9026	-3.139774	-429.9078	0.888744	-429.8717	-3.709066
-428.9216	-2.227968	-428.8852	-3.133399	-428.9307	0.916408	-428.8781	-3.703525
-427.9311	-2.209018	-427.8849	-3.125023	-427.915	0.949543	-427.8893	-3.692377
-426.9093	-2.192904	-426.8773	-3.118198	-426.8945	0.985798	-426.8627	-3.680025
-425.8929	-2.177696	-425.8688	-3.114492	-425.9032	1.016475	-425.8452	-3.671489
-424.8836	-2.162899	-424.856	-3.111167	-424.8901	1.051481	-424.8365	-3.660146
-423.865	-2.14491	-423.854	-3.107522	-423.8997	1.086474	-423.8415	-3.649619
-422.8743	-2.125801	-422.8377	-3.103719	-422.9085	1.119617	-422.8736	-3.639337
-421.8669	-2.108245	-421.8414	-3.099018	-421.8942	1.15872	-421.8964	-3.62662
-420.8664	-2.088916	-420.8457	-3.094432	-420.882	1.197704	-420.9095	-3.615144
-419.8808	-2.071837	-419.8326	-3.088814	-419.8702	1.240832	-419.8978	-3.603228
-418.8907	-2.052151	-418.85	-3.0836	-418.8573	1.283787	-418.8794	-3.590152
-417.9056	-2.03214	-417.8456	-3.076004	-417.8638	1.325702	-417.8654	-3.577227
-416.9088	-2.013065	-416.8391	-3.067385	-416.8593	1.369442	-416.8503	-3.562686
-415.8942	-1.992543	-415.8233	-3.061113	-415.8778	1.411904	-415.8709	-3.55193
-414.8756	-1.971002	-414.8221	-3.054663	-414.8755	1.457188	-414.8558	-3.539701
-413.8505	-1.943376	-413.812	-3.049513	-413.8478	1.512372	-413.8272	-3.526915
-412.8456	-1.920153	-412.831	-3.046926	-412.8387	1.560314	-412.8271	-3.515868
-411.8311	-1.895888	-411.8338	-3.044119	-411.821	1.610876	-411.7975	-3.506337
-410.8265	-1.872906	-410.8176	-3.039563	-410.8238	1.661122	-410.804	-3.495652
-409.8615	-1.856294	-409.8167	-3.036341	-409.8604	1.705734	-409.8421	-3.487543
-408.8762	-1.831599	-408.8098	-3.030835	-408.8976	1.762888	-408.8598	-3.477843
-407.9042	-1.804723	-407.8464	-3.023753	-407.8963	1.818412	-407.8647	-3.461411
-406.9234	-1.778572	-406.8535	-3.017125	-406.8875	1.876703	-406.8738	-3.451324
-405.9102	-1.749639	-405.8761	-3.009746	-405.888	1.936224	-405.8742	-3.437711
-404.8966	-1.72232	-404.8676	-3.003012	-404.8734	1.99569	-404.8738	-3.425237
-403.8801	-1.695898	-403.8587	-2.996197	-403.882	2.055673	-403.8822	-3.412344
-402.8721	-1.66704	-402.8673	-2.991025	-402.9046	2.119841	-402.8786	-3.396394
-401.8741	-1.637012	-401.8591	-2.985128	-401.902	2.187966	-401.8752	-3.384576
-400.8815	-1.604544	-400.8578	-2.979187	-400.8942	2.256859	-400.8517	-3.369363
-399.8994	-1.573969	-399.846	-2.974949	-399.9055	2.327329	-399.8452	-3.358912
-398.9193	-1.542086	-398.8577	-2.969954	-398.9086	2.395864	-398.8473	-3.346066
-397.9009	-1.505321	-397.8629	-2.964354	-397.91	2.470442	-397.8268	-3.33326
-396.9156	-1.474691	-396.8727	-2.959082	-396.9238	2.540398	-396.8515	-3.323225
-395.9224	-1.440534	-395.8811	-2.952298	-395.9223	2.61654	-395.8784	-3.308357
-394.9042	-1.403494	-394.8784	-2.945012	-394.9283	2.697682	-394.8597	-3.292256
-393.9214	-1.369024	-393.8708	-2.939092	-393.9282	2.775002	-393.8891	-3.280541
-392.8949	-1.32845	-392.8835	-2.932766	-392.9451	2.859496	-392.9033	-3.26456
-391.8806	-1.288151	-391.8905	-2.925311	-391.9445	2.945444	-391.8969	-3.250394
-390.8735	-1.24842	-390.891	-2.918295	-390.9447	3.026743	-390.9304	-3.239964
-389.8769	-1.206942	-389.889	-2.910403	-389.9296	3.11795	-389.9218	-3.219151
-388.8857	-1.165336	-388.8864	-2.904339	-388.9387	3.206573	-388.9084	-3.199681
-387.8923	-1.120901	-387.8856	-2.899037	-387.9268	3.299261	-387.8828	-3.17937
-386.8904	-1.078144	-386.8666	-2.894924	-386.9348	3.393899	-386.8853	-3.160595
-385.8888	-1.035837	-385.891	-2.890903	-385.9528	3.481732	-385.8854	-3.142081
-384.8839	-0.989803	-384.8931	-2.884929	-384.9344	3.581693	-384.9068	-3.125123
-383.8894	-0.946261	-383.8977	-2.879742	-383.9654	3.670841	-383.9367	-3.103705
-382.8938	-0.89711	-382.9223	-2.873589	-382.9788	3.770079	-382.9399	-3.08205
-381.8922	-0.841729	-381.9045	-2.867121	-381.9793	3.878831	-381.9252	-3.056479
-380.8987	-0.792936	-380.9127	-2.86183	-380.9873	3.975186	-380.9176	-3.033982
-379.9094	-0.737334	-379.9064	-2.854602	-379.9648	4.08807	-379.9248	-3.014128
-378.9155	-0.680317	-378.9048	-2.845996	-378.9553	4.196173	-378.9087	-2.986151
-377.9501	-0.629139	-377.9114	-2.837717	-377.9675	4.297228	-377.9307	-2.96681
-376.9723	-0.570611	-376.8956	-2.830536	-376.9591	4.41749	-376.9201	-2.94004
-375.9553	-0.510201	-375.8872	-2.824839	-375.9889	4.52727	-375.9077	-2.91157
-374.9711	-0.452398	-374.8744	-2.820475	-374.969	4.644465	-374.9165	-2.887931
-373.9556	-0.388231	-373.8666	-2.816421	-373.9425	4.77015	-373.9145	-2.856032
-372.9453	-0.325956	-372.8782	-2.810172	-372.9347	4.877123	-372.9149	-2.830742
-371.9656	-0.264345	-371.895	-2.804929	-371.9111	4.997427	-371.9072	-2.804533
-370.9509	-0.19951	-370.905	-2.798879	-370.9234	5.111126	-370.9108	-2.7767
-369.95	-0.134111	-369.9393	-2.792855	-369.9586	5.230057	-369.9435	-2.748469
-368.9399	-0.058397	-368.9467	-2.786114	-368.975	5.36298	-368.9485	-2.711471
-367.9296	0.010709	-367.9278	-2.777992	-367.9875	5.485716	-367.951	-2.682772
-366.9423	0.083641	-366.9135	-2.770713	-367.0134	5.616986	-366.9474	-2.652958
-365.9337	0.164223	-365.886	-2.762098	-366.0098	5.751682	-365.9063	-2.619023
-364.9478	0.238332	-364.8646	-2.756873	-365.0003	5.876454	-364.9177	-2.589337
-363.9225	0.323083	-363.8658	-2.750098	-363.9948	6.014426	-363.9102	-2.546669
-362.9094	0.408834	-362.862	-2.743903	-362.9441	6.167522	-362.9059	-2.504311
-361.9013	0.487206	-361.8468	-2.738794	-361.9234	6.294416	-361.9011	-2.469926
-360.8948	0.568906	-360.8409	-2.731085	-360.9213	6.435483	-360.8926	-2.434617
-359.9171	0.654566	-359.8495	-2.725298	-359.9046	6.568341	-359.8924	-2.398316
-358.915	0.729435	-358.8751	-2.718444	-358.9243	6.683156	-358.8979	-2.362565
-357.9254	0.814569	-357.8885	-2.710499	-357.9184	6.831185	-357.91	-2.321981
